# Matter power spectrum P(k) at redshift z=0
# for k=1.02462e-05 to 1.06981 h/Mpc,
# number of wavenumbers equal to 605
#    1:k (h/Mpc)              2:P (Mpc/h)^3        
       1.024618752284e-05       5.217754882729e+01 
       2.285396527656e-05       1.139194841053e+02 
       3.550426958221e-05       1.746068832211e+02 
       4.822970573941e-05       2.349176664601e+02 
       6.106339628454e-05       2.952075078398e+02 
       7.403926398640e-05       3.557399348842e+02 
       8.719232353213e-05       4.167404097604e+02 
       1.005589856323e-04       4.784171823414e+02 
       1.141773773035e-04       5.409716633954e+02 
       1.280876821175e-04       6.046046105736e+02 
       1.423325042208e-04       6.695204190772e+02 
       1.569572598879e-04       7.359304197812e+02 
       1.720106002473e-04       8.040556679429e+02 
       1.875448685450e-04       8.741295813988e+02 
       2.036165948176e-04       9.464003600272e+02 
       2.202870300316e-04       1.021133454775e+03 
       2.376227204837e-04       1.098614021672e+03 
       2.556961213766e-04       1.179149408516e+03 
       2.745862457772e-04       1.263071666098e+03 
       2.943793413763e-04       1.350740039741e+03 
       3.151695823064e-04       1.442543392622e+03 
       3.370597563996e-04       1.538902428489e+03 
       3.601619193749e-04       1.640271640605e+03 
       3.845979762574e-04       1.747140717302e+03 
       4.105001367699e-04       1.860035219834e+03 
       4.380111757167e-04       1.979516188666e+03 
       4.672844122798e-04       2.106178321309e+03 
       4.984833052363e-04       2.240646260307e+03 
       5.317805471014e-04       2.383568538696e+03 
       5.673565331451e-04       2.535608688434e+03 
       6.053970865584e-04       2.697433093902e+03 
       6.460903451521e-04       2.869695311413e+03 
       6.896227640644e-04       3.053016829890e+03 
       7.361742671131e-04       3.247964621233e+03 
       7.859126857422e-04       3.455026305090e+03 
       8.389877502628e-04       3.674584296796e+03 
       8.955250248813e-04       3.906890816610e+03 
       9.556202788876e-04       4.152046017246e+03 
       1.019334830977e-03       4.409981584508e+03 
       1.086692367330e-03       4.680451900322e+03 
       1.157677608154e-03       4.963034212149e+03 
       1.232236996392e-03       5.257138228438e+03 
       1.310281343008e-03       5.562024484570e+03 
       1.391690135111e-03       5.876791501730e+03 
       1.476317042650e-03       6.200513190430e+03 
       1.563996075813e-03       6.532172194896e+03 
       1.654547853204e-03       6.870715804417e+03 
       1.747785523160e-03       7.215086974233e+03 
       1.843520006759e-03       7.564247948751e+03 
       1.941564369186e-03       7.917199368796e+03 
       2.041737250992e-03       8.272994491082e+03 
       2.143865387495e-03       8.630749083337e+03 
       2.247785308725e-03       8.989647114492e+03 
       2.353344346352e-03       9.348943365991e+03 
       2.460401084583e-03       9.707963165740e+03 
       2.568825386457e-03       1.006610050997e+04 
       2.678498112078e-03       1.042281477185e+04 
       2.789310626313e-03       1.077762673450e+04 
       2.901164173824e-03       1.113011380546e+04 
       3.013969181174e-03       1.147990550795e+04 
       3.127644530065e-03       1.182667836031e+04 
       3.242116832971e-03       1.217015110413e+04 
       3.357319732307e-03       1.251008041009e+04 
       3.473193236600e-03       1.284625741589e+04 
       3.589683101413e-03       1.317850350994e+04 
       3.706740258709e-03       1.350666653328e+04 
       3.824320295499e-03       1.383061770913e+04 
       3.942382980698e-03       1.415024890980e+04 
       4.060891837938e-03       1.446547032713e+04 
       4.179813761357e-03       1.477620819109e+04 
       4.299118671030e-03       1.508240299213e+04 
       4.418779204605e-03       1.538400797401e+04 
       4.538770441734e-03       1.568098747256e+04 
       4.659069658046e-03       1.597331599774e+04 
       4.779656105616e-03       1.626097663654e+04 
       4.900510817105e-03       1.654396080327e+04 
       5.021616431010e-03       1.682226645160e+04 
       5.142957035697e-03       1.709589780140e+04 
       5.264518030124e-03       1.736486151346e+04 
       5.386285999396e-03       1.762917551450e+04 
       5.508248603478e-03       1.788885839091e+04 
       5.630394477590e-03       1.814393251999e+04 
       5.752713142972e-03       1.839442302148e+04 
       5.875194926863e-03       1.864035815120e+04 
       5.997830890650e-03       1.888176787259e+04 
       6.120612765307e-03       1.911868439655e+04 
       6.243532893292e-03       1.935114167099e+04 
       6.366584176209e-03       1.957917461405e+04 
       6.489760027612e-03       1.980281966951e+04 
       6.613054330379e-03       2.002211436673e+04 
       6.736461398189e-03       2.023709720942e+04 
       6.859975940647e-03       2.044780741769e+04 
       6.983593031688e-03       2.065428463858e+04 
       7.107308080910e-03       2.085656935388e+04 
       7.231116807538e-03       2.105470306364e+04 
       7.355015216752e-03       2.124872645758e+04 
       7.478999578137e-03       2.143868169422e+04 
       7.603066406042e-03       2.162461071272e+04 
       7.727212441668e-03       2.180655560596e+04 
       7.851434636701e-03       2.198455826483e+04 
       7.975730138353e-03       2.215866140107e+04 
       8.100096275676e-03       2.232890673295e+04 
       8.224530547013e-03       2.249533637568e+04 
       8.349030608504e-03       2.265799187960e+04 
       8.473594263523e-03       2.281691503195e+04 
       8.598219452987e-03       2.297214703874e+04 
       8.722904246428e-03       2.312372943985e+04 
       8.847646833792e-03       2.327170242014e+04 
       8.972445517875e-03       2.341610731455e+04 
       9.097298707351e-03       2.355698369392e+04 
       9.222204910340e-03       2.369437247511e+04 
       9.347162728469e-03       2.382831281522e+04 
       9.472170851382e-03       2.395884502171e+04 
       9.597228051667e-03       2.408600802975e+04 
       9.722333180155e-03       2.420984123776e+04 
       9.847485161575e-03       2.433038312143e+04 
       9.972682990521e-03       2.444767271208e+04 
       1.009792572772e-02       2.456174808664e+04 
       1.022321249655e-02       2.467264730671e+04 
       1.034854247986e-02       2.478040746686e+04 
       1.047391491694e-02       2.488506683440e+04 
       1.059932910077e-02       2.498666183959e+04 
       1.072478437544e-02       2.508522950195e+04 
       1.085028013375e-02       2.518080514523e+04 
       1.097581581498e-02       2.527342559494e+04 
       1.110139090281e-02       2.536312647091e+04 
       1.122700492341e-02       2.544994219122e+04 
       1.135265744363e-02       2.553390833029e+04 
       1.147834806932e-02       2.561505915560e+04 
       1.160407644380e-02       2.569342897939e+04 
       1.172984224640e-02       2.576905175378e+04 
       1.185564519109e-02       2.584196119317e+04 
       1.198148502529e-02       2.591219046947e+04 
       1.210736152863e-02       2.597977368912e+04 
       1.223327451192e-02       2.604474252042e+04 
       1.235922381612e-02       2.610713024085e+04 
       1.248520931142e-02       2.616696837388e+04 
       1.261123089636e-02       2.622428969560e+04 
       1.273728849702e-02       2.627912463883e+04 
       1.286338206631e-02       2.633150588666e+04 
       1.298951158322e-02       2.638146318212e+04 
       1.311567705224e-02       2.642902784327e+04 
       1.324187850277e-02       2.647422999556e+04 
       1.336811598853e-02       2.651709938652e+04 
       1.349438958712e-02       2.655766627808e+04 
       1.362069939952e-02       2.659595887760e+04 
       1.374704554973e-02       2.663200727250e+04 
       1.387342818434e-02       2.666583971538e+04 
       1.399984747220e-02       2.669748431652e+04 
       1.412630360416e-02       2.672696998159e+04 
       1.425279679273e-02       2.675432442346e+04 
       1.437932727187e-02       2.677957477641e+04 
       1.450589529677e-02       2.680274894955e+04 
       1.463250114368e-02       2.682387461001e+04 
       1.475914510972e-02       2.684297792272e+04 
       1.488582751275e-02       2.686008577666e+04 
       1.501254869131e-02       2.687522515811e+04 
       1.511476363636e-02       2.688601724457e+04 
       1.513930900447e-02       2.688842203943e+04 
       1.526610883181e-02       2.689970213992e+04 
       1.539294857337e-02       2.690909127735e+04 
       1.551982864963e-02       2.691661485480e+04 
       1.564674950151e-02       2.692229844993e+04 
       1.577371159043e-02       2.692616648500e+04 
       1.590071539829e-02       2.692824375434e+04 
       1.602776142759e-02       2.692855470740e+04 
       1.615485020149e-02       2.692712358075e+04 
       1.628198226391e-02       2.692397470677e+04 
       1.640915817966e-02       2.691913188093e+04 
       1.653637853455e-02       2.691261870360e+04 
       1.666364393559e-02       2.690445886754e+04 
       1.679095501111e-02       2.689467531424e+04 
       1.691831241100e-02       2.688329160585e+04 
       1.704571680687e-02       2.687033044809e+04 
       1.717316889231e-02       2.685581508232e+04 
       1.730066938311e-02       2.683976807005e+04 
       1.742821901751e-02       2.682221199956e+04 
       1.755581855648e-02       2.680316910736e+04 
       1.768346878403e-02       2.678266201454e+04 
       1.781117050747e-02       2.676071231068e+04 
       1.793892455778e-02       2.673734224746e+04 
       1.806673178991e-02       2.671257358218e+04 
       1.819459308317e-02       2.668642796776e+04 
       1.832250934156e-02       2.665892681886e+04 
       1.845048149420e-02       2.663009151989e+04 
       1.857851049570e-02       2.659994344481e+04 
       1.870659732663e-02       2.656850340967e+04 
       1.883474299390e-02       2.653579260516e+04 
       1.896294853126e-02       2.650183169698e+04 
       1.909121499977e-02       2.646664136840e+04 
       1.921954348829e-02       2.643024200228e+04 
       1.934793511398e-02       2.639265419710e+04 
       1.947639102284e-02       2.635389763570e+04 
       1.960491239028e-02       2.631399279989e+04 
       1.973350042166e-02       2.627295923529e+04 
       1.986215635288e-02       2.623081697827e+04 
       1.999088145102e-02       2.618758524546e+04 
       2.011967701493e-02       2.614328363383e+04 
       2.024854437592e-02       2.609793136295e+04 
       2.037748489841e-02       2.605154705855e+04 
       2.050649998060e-02       2.600415021860e+04 
       2.063559105527e-02       2.595575899599e+04 
       2.076475959042e-02       2.590639215458e+04 
       2.089400709010e-02       2.585606774392e+04 
       2.102333509519e-02       2.580480417919e+04 
       2.115274518420e-02       2.575261924459e+04 
       2.128223897410e-02       2.569953053383e+04 
       2.141181812123e-02       2.564555612891e+04 
       2.154148432215e-02       2.559071315365e+04 
       2.167123931458e-02       2.553501893783e+04 
       2.180108487835e-02       2.547849045043e+04 
       2.193102283638e-02       2.542114475281e+04 
       2.206105505571e-02       2.536299833055e+04 
       2.219118344850e-02       2.530406757728e+04 
       2.232140997315e-02       2.524436908145e+04 
       2.245173663539e-02       2.518391894705e+04 
       2.258216548944e-02       2.512273324759e+04 
       2.271269863914e-02       2.506082797749e+04 
       2.284333823926e-02       2.499821851096e+04 
       2.297408649666e-02       2.493492032364e+04 
       2.310494567166e-02       2.487094916362e+04 
       2.323591807932e-02       2.480631972374e+04 
       2.336700609089e-02       2.474104761917e+04 
       2.349821213514e-02       2.467514734699e+04 
       2.362953869992e-02       2.460863381383e+04 
       2.376098833363e-02       2.454152170494e+04 
       2.389256364680e-02       2.447382491970e+04 
       2.402426731368e-02       2.440555853720e+04 
       2.415610207396e-02       2.433673657727e+04 
       2.428807073444e-02       2.426737278276e+04 
       2.442017617086e-02       2.419748104394e+04 
       2.455242132971e-02       2.412707505514e+04 
       2.468480923012e-02       2.405616875659e+04 
       2.481734296585e-02       2.398477557813e+04 
       2.495002570731e-02       2.391290817732e+04 
       2.508286070365e-02       2.384058047907e+04 
       2.521585128494e-02       2.376780509488e+04 
       2.534900086442e-02       2.369459518971e+04 
       2.548231294077e-02       2.362096310536e+04 
       2.561579110059e-02       2.354692135724e+04 
       2.574943902079e-02       2.347248280294e+04 
       2.588326047125e-02       2.339765934683e+04 
       2.601725931742e-02       2.332246308735e+04 
       2.615143952307e-02       2.324690609626e+04 
       2.628580515318e-02       2.317099999836e+04 
       2.642036037686e-02       2.309475665402e+04 
       2.655510947042e-02       2.301818717556e+04 
       2.669005682056e-02       2.294130277151e+04 
       2.682520692759e-02       2.286411487583e+04 
       2.696056440892e-02       2.278663426319e+04 
       2.709613400253e-02       2.270887160296e+04 
       2.723192057066e-02       2.263083742850e+04 
       2.736792910361e-02       2.255254275239e+04 
       2.750416472368e-02       2.247399684029e+04 
       2.764063268925e-02       2.239521038103e+04 
       2.777733839905e-02       2.231619312298e+04 
       2.791428739660e-02       2.223695510525e+04 
       2.805148537473e-02       2.215750525720e+04 
       2.818893818042e-02       2.207785327891e+04 
       2.832665181971e-02       2.199800873043e+04 
       2.846463246286e-02       2.191798018742e+04 
       2.860288644975e-02       2.183777635630e+04 
       2.874142029540e-02       2.175740653182e+04 
       2.888024069582e-02       2.167687920265e+04 
       2.901935453404e-02       2.159620227009e+04 
       2.915876888639e-02       2.151538444115e+04 
       2.929849102911e-02       2.143443376179e+04 
       2.943852844512e-02       2.135335773367e+04 
       2.957888883119e-02       2.127216428289e+04 
       2.971958010537e-02       2.119086177736e+04 
       2.986061041472e-02       2.110945675284e+04 
       3.000198814344e-02       2.102795643835e+04 
       3.014372192129e-02       2.094636882043e+04 
       3.028582063242e-02       2.086470036882e+04 
       3.042829342461e-02       2.078295793997e+04 
       3.057114971890e-02       2.070114841209e+04 
       3.071439921964e-02       2.061927814327e+04 
       3.085805192507e-02       2.053735338120e+04 
       3.100211813836e-02       2.045538072105e+04 
       3.114660847910e-02       2.037336606406e+04 
       3.129153389548e-02       2.029131498451e+04 
       3.143690567691e-02       2.020923379732e+04 
       3.158273546730e-02       2.012712784577e+04 
       3.172903527907e-02       2.004500233937e+04 
       3.187581750769e-02       1.996286257757e+04 
       3.202309494709e-02       1.988071380238e+04 
       3.217088080574e-02       1.979856067236e+04 
       3.231918872361e-02       1.971640797058e+04 
       3.246803279000e-02       1.963426023833e+04 
       3.261742756221e-02       1.955212183348e+04 
       3.276738808531e-02       1.946999692067e+04 
       3.291792991285e-02       1.938788967929e+04 
       3.306906912873e-02       1.930580302784e+04 
       3.322082237025e-02       1.922374154564e+04 
       3.337320685239e-02       1.914170873591e+04 
       3.352624039345e-02       1.905970713698e+04 
       3.367994144214e-02       1.897774024673e+04 
       3.383432910611e-02       1.889581098597e+04 
       3.398942318222e-02       1.881392166613e+04 
       3.414524418850e-02       1.873207527545e+04 
       3.430181339795e-02       1.865027413023e+04 
       3.445915287438e-02       1.856851963423e+04 
       3.461728551035e-02       1.848681476738e+04 
       3.477623506746e-02       1.840516098292e+04 
       3.493602621899e-02       1.832355961208e+04 
       3.509668459530e-02       1.824201232596e+04 
       3.525823683202e-02       1.816052027198e+04 
       3.542071062126e-02       1.807908428796e+04 
       3.558413476612e-02       1.799770551442e+04 
       3.574853923882e-02       1.791638469125e+04 
       3.591395524252e-02       1.783512145937e+04 
       3.608041527735e-02       1.775391681873e+04 
       3.624795321088e-02       1.767277059753e+04 
       3.641660435341e-02       1.759168227317e+04 
       3.658640553842e-02       1.751065160215e+04 
       3.675739520876e-02       1.742967776798e+04 
       3.692961350892e-02       1.734875963900e+04 
       3.710310238399e-02       1.726789629392e+04 
       3.727790568581e-02       1.718708619580e+04 
       3.745406928706e-02       1.710632730304e+04 
       3.763164120394e-02       1.702561773875e+04 
       3.781067172814e-02       1.694495525450e+04 
       3.799121356917e-02       1.686433701459e+04 
       3.817332200778e-02       1.678376012813e+04 
       3.835705506172e-02       1.670322147427e+04 
       3.854247366485e-02       1.662271719248e+04 
       3.872964186116e-02       1.654224338414e+04 
       3.891862701486e-02       1.646179619089e+04 
       3.910950003845e-02       1.638137056394e+04 
       3.930233564051e-02       1.630096149114e+04 
       3.949721259517e-02       1.622056366286e+04 
       3.969421403577e-02       1.614017156596e+04 
       3.989342777515e-02       1.605977844054e+04 
       4.009494665555e-02       1.597937778504e+04 
       4.029886893150e-02       1.589896281351e+04 
       4.050529868931e-02       1.581852553921e+04 
       4.071434630751e-02       1.573805766471e+04 
       4.092612896304e-02       1.565755047582e+04 
       4.114077118862e-02       1.557699503152e+04 
       4.135840548770e-02       1.549638096462e+04 
       4.157917301400e-02       1.541569743503e+04 
       4.180322432392e-02       1.533493305182e+04 
       4.203072021132e-02       1.525407569426e+04 
       4.226183263545e-02       1.517311230367e+04 
       4.249674575465e-02       1.509202853365e+04 
       4.273565708038e-02       1.501080935634e+04 
       4.297877876844e-02       1.492943855081e+04 
       4.322633906721e-02       1.484789929289e+04 
       4.347858394571e-02       1.476617266652e+04 
       4.373577892869e-02       1.468423870994e+04 
       4.399821117043e-02       1.460207611946e+04 
       4.426619180450e-02       1.451966171841e+04 
       4.454005861416e-02       1.443697080168e+04 
       4.482017907568e-02       1.435397635782e+04 
       4.510695383771e-02       1.427064951685e+04 
       4.540082071165e-02       1.418695877063e+04 
       4.570225926342e-02       1.410286959370e+04 
       4.601179611557e-02       1.401834443666e+04 
       4.633001109177e-02       1.393334224106e+04 
       4.665754436406e-02       1.384781782946e+04 
       4.699510479921e-02       1.376172117537e+04 
       4.734347974453e-02       1.367499720702e+04 
       4.770354654989e-02       1.358758447605e+04 
       4.807628619255e-02       1.349941435475e+04 
       4.846279946114e-02       1.341041011229e+04 
       4.886432626773e-02       1.332048475962e+04 
       4.928226880117e-02       1.322953978659e+04 
       4.971821941822e-02       1.313746298203e+04 
       5.017399440278e-02       1.304412440953e+04 
       5.065167502113e-02       1.294937289391e+04 
       5.115365767765e-02       1.285303182996e+04 
       5.168271544758e-02       1.275489128219e+04 
       5.224207384476e-02       1.265470056409e+04 
       5.283550437542e-02       1.255215644824e+04 
       5.346744020893e-02       1.244688828689e+04 
       5.414311907062e-02       1.233843619938e+04 
       5.486875900224e-02       1.222622212207e+04 
       5.565177243200e-02       1.210950937077e+04 
       5.650102199688e-02       1.198734488360e+04 
       5.742711570453e-02       1.185848156503e+04 
       5.844272548905e-02       1.172126912532e+04 
